Wavelength	I1	I1 dark	R1	R1dark	XCorrect	I1c	R1c	I1c/R1c	Abs	Percent T
nm	uA	uA	uA	uA		uA	uA	uA/uA	OD	T*100
	Abs Detector Raw	Dark Offset for Abs Detector	Ref Detector Raw	Dark Offset for Ref Detector	Linear interp	Dark subtracted Abs Detector	Corrected Ref Detector	Corrected Intensity 	-Log(T)	% Transmittance
600	2.7013432460419	0.00155672086475133	1.59383811130712	0.00334836945149484	0.717130899429321	2.69978652517715	1.14058933911003	2.36701013467627	7.70733560798019E-4	99.8226894204949
595	2.8293664694073		1.66992465885465		0.719892263412476	2.82780974854255	1.19975537712801	2.35698860155293	6.41115415983892E-4	99.8524866281169
590	2.96970018954968		1.753546371167		0.723316371440887	2.96814346868493	1.26594686790395	2.34460350899191	6.62111742764559E-4	99.8476592935596
585	3.09101405014892		1.82631213747781		0.726323843002319	3.08945732928417	1.32406204964686	2.33331763425147	6.2381806028105E-4	99.8564636953999
580	3.18879281684806		1.88565165628367		0.72833788394928	3.18723609598331	1.37095279288212	2.32483285531872	7.17403264703358E-4	99.8349481543262
575	3.29764636621779		1.95083115309354		0.73105776309967	3.29608964535304	1.42372240748447	2.31512100113448	6.58395919561744E-4	99.8485135936989
570	3.41544607888185		2.02141292649315		0.73466420173645	3.4138893580171	1.48259978685163	2.30263715690035	6.88732803430681E-4	99.8415390934598
565	3.5363602593069		2.09466378435475		0.738382756710052	3.53480353844215	1.54419124120649	2.28909700049871	6.69315137526022E-4	99.8460031911428
560	3.67266785153568		2.17592300766286		0.742404222488403	3.67111113067093	1.61292858507933	2.27605311520371	6.75657929302647E-4	99.8445449691074
555	3.82434348325383		2.26589563791858		0.747231364250183	3.82278676238908	1.69064628209719	2.26113930682594	7.0162523720456E-4	99.838575248929
550	3.9850948876408		2.36101588534124		0.752462446689606	3.98353816677605	1.774056267487	2.24544071108795	7.39787387046279E-4	99.8298026592819
545	4.15909070359594		2.46341709953167		0.757837355136871	4.15753398273119	1.86433197985888	2.23003951423173	7.23600679948535E-4	99.8335235121976
540	4.33530641578244		2.56640260571196		0.763391971588135	4.33374969491769	1.9566150267062	2.21492201366418	7.41662471728746E-4	99.8293716408427
535	4.52400646141515		2.67620131254861		0.769757688045502	4.5224497405504	2.05744910196405	2.19808584145933	7.23282842801186E-4	99.8335965750967
530	4.75651774954858		2.81094583105317		0.776710212230682	4.75496102868383	2.18068962025896	2.18048501011307	7.13873685532235E-4	99.8357595318595
525	5.00143754593321		2.95236426188458		0.783903956413269	4.99988082506846	2.3117452256039	2.16281654643077	7.94510352438887E-4	99.8172244689098
520	5.26137616550002		3.10110838238397		0.791250944137573	5.25981944463526	2.45110553494444	2.14589676766181	7.91164587433266E-4	99.8179934546486
515	5.56399595921268		3.27386811191827		0.799825251102448	5.56243923834793	2.615844274254	2.12644127675921	8.35520796764967E-4	99.8077991696566
510	5.85885808205791		3.43991005583488		0.809457659721375	5.85730136119316	2.78175118014803	2.10561656376522	8.2030359381844E-4	99.8112963868851
505	6.24901521917079		3.66012905641977		0.818737685680389	6.24745849830604	2.99394415668915	2.08669840562918	8.36608136609441E-4	99.8075492819295
500	6.69268177501518		3.90921106958464		0.828416645526886	6.69112505415043	3.23568167593289	2.06791820836989	8.95040054776241E-4	99.7941216320638
495	7.57190088771293		4.40916155464749		0.838614106178284	7.57034416684818	3.69477708629163	2.04893123185582	9.09988169868892E-4	99.7906868466683
490	8.26926032828579		4.79844039342403		0.848338663578033	8.26770360742104	4.06786195935055	2.03244448558943	9.67887710569325E-4	99.7773837768712
485	9.08131267855661		5.24854572609816		0.855348587036133	9.07975595769186	4.48647214773338	2.02380749477717	9.9541194278296E-4	99.7710603972954
480	10.1044620738824		5.8152550597712		0.866066455841064	10.1029053530176	5.03349742896416	2.00713430285723	0.00102311742728146	99.7646957817774
475	11.5910474732157		6.64659596465245		0.879869520664215	11.589490752351	5.84519107724316	1.98273941761662	0.00106262296489082	99.7556211127384
470	14.3668189318508		8.18811714989909		0.895019471645355	14.3652622109861	7.3255274294156	1.96098674797155	0.00107327600849724	99.7531741833108
465	15.1387578740788		8.5817825877792		0.910354375839233	15.1372011532141	7.80941512850364	1.93832712234296	0.00112049865600039	99.7423281949658
460	13.981911584756		7.90789580824536		0.922647356987	13.9803548638913	7.29310980258151	1.91692641991249	0.00117404426856701	99.7300313893241
455	12.439006986429		7.06127001572987		0.929956316947937	12.4374502655642	6.56355881948016	1.89492478206348	0.00128087906977789	99.705501195805
450	11.048960073038		6.34348749906674		0.932973027229309	11.0474033521733	5.91517879681213	1.86763642007357	0.00140027505981632	99.678093984125
445	8.79141927639466		5.11762057159201		0.935176968574524	8.78986255552991	4.78274957446272	1.83782621663133	0.00150770402153371	99.6534402289644
440	7.91153845959799		4.64601947362292		0.939942717552185	7.90998173873324	4.36384489435589	1.81261752656788	0.00153330228798176	99.6475666103858
435	7.78185494937399		4.56752036993268		0.948230147361755	7.78029822850924	4.32788548860067	1.79771351367821	0.00150387207209389	99.6543195139774
430	8.30738784278188		4.84352663714036		0.960858643054962	8.30583112191713	4.65072712243564	1.78592097606605	0.00157352660028372	99.638337689941
425	8.76934105870944		5.10337981481298		0.977734744548798	8.76778433784469	4.98647794242135	1.7583120669711	0.00175309066546677	99.5971495848592
420	8.26684238884233		4.86077803721791		0.992123365402222	8.26528566797758	4.81916946918902	1.71508508277641	0.00190573418884961	99.56214985756
415	7.03741382441894		4.21389460108203		0.999114215373993	7.03585710355419	4.20681659451146	1.67248962380098	0.00208883506141916	99.5201827709443
410	6.09669577153724		3.7205705954849		1.00281167030334	6.09513905067249	3.72767382937727	1.63510525052851	0.00217386574544399	99.5006995833689
405	5.51880782462762		3.41434549783156		1.00957882404327	5.51725110376287	3.44367046968493	1.60214258371465	0.00223667336667642	99.4863108433779
400	5.43604789331769		3.38377762808065		1.02345275878906	5.43449117245294	3.45970965063528	1.57079400332194	0.00232087382559916	99.4670244342935
395	5.54920267313898		3.45164918908875		1.04821944236755	5.54764595227423	3.61457596227574	1.53479855180064	0.00239691052720754	99.4496111750209
390	5.59681364462842		3.46615847858155		1.08368313312531	5.59525692376367	3.75258890848004	1.49103913597346	0.00253548759789734	99.4178833086128
385	5.72677958649192		3.52947360650239		1.12599265575409	5.72522286562717	3.97039112018845	1.44197956632429	0.00277359565378695	99.3633909957255
380	5.81902087518584		3.57478598669242		1.17243885993958	5.81746415432109	4.18729224830327	1.38931409831219	0.00300397368714384	99.3106961696178
375	5.77146731580554		3.54063265675077		1.21915531158447	5.76991059494079	4.3124989274452	1.33795061564432	0.00319640201779302	99.2667030746001
370	5.73713644191928		3.52046753964384		1.25962615013123	5.73557972105453	4.43025527990212	1.29463865142806	0.00340267243162544	99.219567034411
365	5.79601231082465		3.56238599162478		1.27197480201721	5.7944555899599	4.52700617483568	1.27997519026363	0.00374273338702822	99.1419066085865
360	6.02634944369333		3.71090639630476		1.25185632705688	6.02479272282858	4.6413299738468	1.29807463739432	0.00401716622712445	99.0792781351047
355	6.34983096583826		3.91537158591745		1.21720862388611	6.34827424497351	4.76174839592503	1.33318136892873	0.00423374996359969	99.0298793717524
350	6.64752563261749		4.10671395575835		1.1792927980423	6.64596891175273	4.83906948366628	1.37339811593643	0.00448922950110625	98.9716408521977
345	6.87155172547232		4.25715172859473		1.14527189731598	6.86999500460757	4.87176144393506	1.41016654523594	0.00485168595890579	98.8890748825751
340	7.013468111624		4.36193079189676		1.11531460285187	7.01191139075925	4.86119062348667	1.44242674971054	0.00523237951255979	98.8024287480267
335	7.01676205204053		4.39231039870896		1.09089875221252	7.01520533117578	4.78791320122512	1.46519058227303	0.00565994872265616	98.705204192682
330	6.79610871796128		4.30519343006292		1.06744050979614	6.79455199709653	4.59196368456308	1.47966152692756	0.00614588630730276	98.5948234569381
325	6.41728264525624		4.13453088069603		1.03879284858704	6.41572592439149	4.29144284888865	1.49500439602801	0.00667922017890751	98.4738187319401
320	6.12278622065174		4.00787842270601		1.00754153728485	6.12122949978699	4.03473036595944	1.51713471399009	0.00720678523278569	98.3542689653089
315	6.02337024448649		3.98896781365072		0.978299379348755	6.02181352362174	3.89912902858043	1.54439965425154	0.00782136442101813	98.2151842199996
310	5.98523284717794		4.00613093736143		0.953616976737976	5.98367612631319	3.81712141094975	1.56758863083278	0.00856741393546113	98.0466108360409
305	5.82762552847177		3.95190421760741		0.934748709201813	5.82606880760702	3.69090748227501	1.57849223682408	0.00934765499784723	97.8706212315881
300	5.50582714108574		3.79794783394524		0.921929001808167	5.50427042022099	3.49835129656252	1.57338984956413	0.0102024450099169	97.6781791048704
295	5.01351383250605		3.52844620172134		0.920162856578827	5.0119571116413	3.24366409106125	1.54515294153086	0.0110983964151362	97.4768763121695
290	4.39490334059313		3.1729950129561		0.925946474075317	4.39334661972838	2.93492313361776	1.49692050514212	0.0122058918899291	97.2286169572366
285	3.73088859104914		2.78081854845871		0.924624860286713	3.72933187018438	2.56811797621506	1.45216532290341	0.0133266529164666	96.9780276375123
280	3.09516958235888		2.40051690447051		0.918464839458466	3.09361286149412	2.20171501367112	1.40509232225103	0.014539745479056	96.7075218441152
275	2.5140843210089		2.0467796121828		0.889670491218567	2.51252760014415	1.81798047749213	1.38204322392402	0.0156876878283312	96.4522386786372
270	2.10630608289221		1.79788148573594		0.843315124511719	2.10474936202746	1.51335691839982	1.39078186806914	0.0167792783430447	96.2101123186045
265	1.86171627429923		1.64053854935293		0.793934762477875	1.86015955343448	1.29982219661116	1.43108769667437	0.0178067306460559	95.9827678168399
260	1.63220991657371		1.4707046999339		0.754058063030243	1.63065319570896	1.10647187233873	1.47374120976278	0.0186772435029336	95.790569772609
255	1.31450918786271		1.21356969913031		0.730857133865356	1.31295246699796	0.884498892351777	1.48440261299478	0.019594869660936	95.5883863714465
250	0.935729159163843		0.89070546274951		0.716208219528198	0.934172438299091	0.635532443876689	1.46990519099344	0.0208871187847166	95.3043845659249
245	0.553687678756811		0.549832979065183		0.708019316196442	0.55213095789206	0.386921659610563	1.42698384589733	0.0224717155299315	94.957284039779
240	0.268696816171824		0.280749270347298		0.70177036523819	0.267140095307073	0.19467173153905	1.37225930644936	0.0252174497305897	94.3588306618567
