Wavelength	I1	I1 dark	R1	R1dark	XCorrect	I1c	R1c	I1c/R1c	Abs	Percent T
nm	uA	uA	uA	uA		uA	uA	uA/uA	OD	T*100
	Abs Detector Raw	Dark Offset for Abs Detector	Ref Detector Raw	Dark Offset for Ref Detector	Linear interp	Dark subtracted Abs Detector	Corrected Ref Detector	Corrected Intensity 	-Log(T)	% Transmittance
600	2.69315087180706	0.00155468325184443	1.5886644040524	0.00334916168686613	0.717130899429321	2.69159618855521	1.13687854563661	2.36753186950856	6.75017202426062E-4	99.8446922726843
595	2.82005175142694		1.66445707708939		0.719892263412476	2.8184970681751	1.1958187369915	2.35696011526463	6.46364279967688E-4	99.8512798226534
590	2.95816920937115		1.74708415683736		0.723316371440887	2.9566145261193	1.26127206944675	2.34415285784947	7.45594564100007E-4	99.8284677920719
585	3.07918586904384		1.81980693242568		0.726323843002319	3.07763118579199	1.31933658869444	2.33271116117343	7.36714025671921E-4	99.8305091249587
580	3.17636708447583		1.87824687726052		0.72833788394928	3.17481240122399	1.36555903478225	2.32491772260159	7.0154977233485E-4	99.838592597309
575	3.28262025177587		1.94229117387961		0.73105776309967	3.28106556852403	1.4174786102136	2.31471963307411	7.33695243248796E-4	99.8312030495795
570	3.40049323958613		2.01304175343089		0.73466420173645	3.39893855633428	1.47644920364928	2.3021032812597	7.89437392064753E-4	99.8183904330262
565	3.51958056454973		2.08537691549537		0.738382756710052	3.51802588129789	1.53733339240396	2.2883948912322	8.02541886908283E-4	99.8153785369454
560	3.65587868778441		2.16665841785613		0.742404222488403	3.65432400453256	1.60604992632831	2.27534894440482	8.10041791993052E-4	99.8136548231237
555	3.80812485783036		2.25735750074567		0.747231364250183	3.80657017457851	1.6842657262262	2.26007696725361	9.05715550380883E-4	99.7916685992542
550	3.96756622316006		2.35152362707838		0.752462446689606	3.96601153990822	1.76691310348256	2.24459908757893	9.02597725696564E-4	99.7923850118669
545	4.1412108269584		2.45389376216738		0.757837355136871	4.13965614370655	1.85711423867309	2.22907996584224	9.10510485335439E-4	99.7905668308956
540	4.31711551741763		2.5570068232788		0.763391971588135	4.31556083416578	1.94944175704381	2.21374186665111	9.7312340965312E-4	99.7761809036374
535	4.50334168976921		2.66595736239423		0.769757688045502	4.50178700651736	2.0495631327475	2.19646174084064	0.00104428879649984	99.7598324832194
530	4.73117632631		2.79791787456226		0.776710212230682	4.72962164305815	2.17057005807067	2.17897672801315	0.00101438721616133	99.7667012772349
525	4.97687167322864		2.94007535446298		0.783903956413269	4.97531698997679	2.30211128141967	2.16119743217131	0.00111975093898667	99.7424999196897
520	5.23599486921472		3.08878499131993		0.791250944137573	5.23444018596287	2.44135401327306	2.14407257509745	0.00116050839811467	99.7331397728716
515	5.53751879134973		3.26140499673369		0.799825251102448	5.53596410809789	2.60587532637212	2.12441633414788	0.00124928270049499	99.7127553668064
510	5.83220293079723		3.42788949313877		0.809457659721375	5.83064824754539	2.77202040231852	2.10339297743575	0.00127917229122237	99.7058930394797
505	6.2177376118739		3.64599080452314		0.818737685680389	6.21618292862205	2.98236798841878	2.08431117580423	0.00133373519084977	99.6933672047506
500	6.65754779566338		3.89354839386598		0.828416645526886	6.65599311241153	3.22270579835309	2.06534307779909	0.00143619391094517	99.6698503275407
495	7.53379660075581		4.39317692580511		0.838614106178284	7.53224191750397	3.68137148668263	2.04604233632815	0.00152275480863366	99.6499867272828
490	8.22108954234546		4.77744505171105		0.848338663578033	8.21953485909362	4.0500501271365	2.02948966088601	0.00159973660017012	99.6323246224803
485	9.03120813285839		5.22802423936375		0.855348587036133	9.02965344960654	4.46891844541382	2.02054558835665	0.0016959582289112	99.6102526804881
480	10.0466569080977		5.79235931767519		0.866066455841064	10.0451022248459	5.01366750862473	2.00354375465981	0.00180071945036863	99.5862274311067
475	11.5290337820573		6.62471959266955		0.879869520664215	11.5274790988054	5.82594202724894	1.97864637939914	0.00196007887336373	99.5496921005874
470	14.2905248305932		8.16273827793018		0.895019471645355	14.2889701473413	7.30281213576895	1.95663942624984	0.00203713449105756	99.5320308525948
465	15.0459152572623		8.54951053224409		0.910354375839233	15.0443605740105	7.78003540031499	1.93371364009492	0.00215541071077767	99.5049278845633
460	13.8843948908098		7.87387257595943		0.922647356987	13.8828402075579	7.26171762628288	1.91178463856963	0.00234051965555918	99.4625250263285
455	12.3511776996706		7.0322032922132		0.929956316947937	12.3496230164187	6.53652729958857	1.88932478216622	0.00256623342500361	99.4108452803105
450	10.9666054444609		6.31602483316085		0.932973027229309	10.965050761209	5.88955613113189	1.86177880252271	0.00276452812337714	99.3654656018114
445	8.7218530510867		5.09383799356204		0.935176968574524	8.72029836783485	4.7605079143555	1.83179999376505	0.00293409327217233	99.326677102627
440	7.84697888466065		4.6247806101824		0.939942717552185	7.8454242014088	4.34388083468002	1.80608642363614	0.00310094920399979	99.2885231249894
435	7.717910926192		4.54861260267425		0.948230147361755	7.71635624294016	4.30995582244547	1.79035622656612	0.00328490416120606	99.2464761979845
430	8.23113830695374		4.82147898586127		0.960858643054962	8.2295836237019	4.62954168491887	1.77762383056415	0.00359590106960142	99.1754315499382
425	8.68535841744346		5.0801994242806		0.977734744548798	8.68380373419161	4.96381289460958	1.74942205086371	0.00395445090328673	99.0935869461831
420	8.18205755519674		4.83754570698848		0.992123365402222	8.18050287194489	4.79611934554043	1.7056503982853	0.00430138379431784	99.0144583869763
415	6.96275488428758		4.19387820833975		0.999114215373993	6.96120020103574	4.18681714044852	1.66264729686523	0.00465213653167778	98.9345228292633
410	6.03170789093755		3.70457099105664		1.00281167030334	6.0301532076857	3.7116284448735	1.6246651024605	0.0049557268632916	98.865387553036
405	5.45400077410533		3.39807684799422		1.00957882404327	5.45244609085348	3.42724518548932	1.59091217457645	0.00529163183043638	98.7889497059993
400	5.37035946584579		3.36913906856883		1.02345275878906	5.36880478259395	3.44472696570273	1.55855742299701	0.00571730054418095	98.6921702958143
395	5.47864530525685		3.43694352508501		1.04821944236755	5.47709062200501	3.59916036891758	1.52176898515145	0.00609956267206872	98.6053405471123
390	5.52300032949368		3.45263674889926		1.08368313312531	5.52144564624184	3.73793477956055	1.47713803794377	0.00660344847311876	98.4910010367567
385	5.64371113955822		3.5138948821994		1.12599265575409	5.64215645630637	3.95284869898606	1.4273646390143	0.00719776837067409	98.3563110269164
380	5.7313644692861		3.56013210857715		1.17243885993958	5.72980978603425	4.17011054330457	1.37401868044815	0.00781177929656141	98.2173519084973
375	5.67287381522294		3.52289733943882		1.21915531158447	5.6713191319711	4.29087585528375	1.32171596737936	0.00849834908923302	98.0622042014765
370	5.63664089544584		3.50522852603286		1.25962615013123	5.635086212194	4.41105882193513	1.27749060705608	0.00919352556358674	97.905361301253
365	5.68603923997502		3.54582205248199		1.27197480201721	5.68448455672318	4.50593625392046	1.26155458852249	0.0100382376484951	97.7151183462938
360	5.90325357992739		3.69287303700182		1.25185632705688	5.90169889667554	4.61875380714046	1.27776866728677	0.0108645963018033	97.5293665952505
355	6.20576804160922		3.89271717072477		1.21720862388611	6.20421335835738	4.73417228206768	1.31051702149877	0.0116803196712833	97.3463518005326
350	6.48849243012795		4.08399275711867		1.1792927980423	6.48693774687611	4.81227360347015	1.34799853071495	0.0125962579538176	97.1412621752757
345	6.69808775155608		4.23437364641036		1.14527189731598	6.69653306830423	4.84567343920963	1.38196127995709	0.0136262181614626	96.9111577353657
340	6.82599593463873		4.33915663305221		1.11531460285187	6.82444125138688	4.835789387968	1.41123624373859	0.0147264256690643	96.6659613367508
335	6.81384356652323		4.36725397180713		1.09089875221252	6.81228888327138	4.76057831213443	1.43097927113336	0.0159207245265283	96.4004975609326
330	6.58754370902904		4.28131082639859		1.06744050979614	6.58598902577719	4.56646958026823	1.44224962194763	0.0172678342642391	96.1019424165396
325	6.19941297327524		4.10736485297255		1.03879284858704	6.1978582900234	4.26322215059655	1.45379669908971	0.0188180114374743	95.7595261924375
320	5.90356554281677		3.98378273310503		1.00754153728485	5.90201085956492	4.01045215960688	1.47165721586452	0.020424266697031	95.4060099601826
315	5.78829009405863		3.96239110965535		0.978299379348755	5.78673541080679	3.87312828051325	1.49407274732454	0.0222093160858209	95.0146742862846
310	5.73840717921889		3.98172812617964		0.953616976737976	5.73685249596705	3.79384972043756	1.51214542449125	0.0242059592733294	94.5788525423471
305	5.5679930246264		3.92686839495354		0.934748709201813	5.56643834137455	3.66750453882451	1.51777272051003	0.0263833625041494	94.1058534082793
300	5.23722614850667		3.77106582599602		0.921929001808167	5.23567146525483	3.47356726342253	1.50728950044747	0.028842115152527	93.5745796430459
295	4.75005521905683		3.5035512347798		0.920162856578827	4.74850053580498	3.22075593818032	1.47434348548863	0.031471194255019	93.0098203963184
290	4.14440259574447		3.14972449425026		0.925946474075317	4.14284791249263	2.91337514530463	1.42200976732073	0.0345020499464257	92.3629828713916
285	3.50143714054996		2.7593497228609		0.924624860286713	3.49988245729812	2.54826663382564	1.37343651988404	0.0375341235246205	91.7203865723648
280	2.89108144718804		2.38017754786233		0.918464839458466	2.8895267639362	2.18303330212897	1.32362926443597	0.0404782456660652	91.1007084565669
275	2.33982980022081		2.03020707562793		0.889670491218567	2.33827511696897	1.80323567592618	1.29671076730887	0.0433661967548322	90.4969209794481
270	1.95286385816354		1.78354658344947		0.843315124511719	1.95130917491169	1.50126741038917	1.29977455142775	0.0461702688309749	89.9144995004432
265	1.71869224655041		1.62580947836687		0.793934762477875	1.71713756329857	1.28812764615311	1.33304922724596	0.0486267912036562	89.4073471279944
260	1.50043960215884		1.45653095365265		0.754058063030243	1.49888491890699	1.09578344728053	1.36786599818318	0.0510549170503293	88.9088684434877
255	1.20354114112595		1.20060823464352		0.730857133865356	1.2019864578741	0.875025334555397	1.37365903638074	0.0532676323980941	88.4570328580075
250	0.85443159021379		0.881446098467661		0.716208219528198	0.852876906961945	0.628900243664938	1.35614020753399	0.0558718500650202	87.9281933665268
245	0.503436187868739		0.543895751610879		0.708019316196442	0.501881504616895	0.382717426970318	1.31136308213061	0.0591678191425574	87.2634101830721
240	0.243076416188749		0.277811737323757		0.70177036523819	0.241521732936904	0.192609701948915	1.25394375513318	0.0643755775890773	86.2232567081305
