Wavelength	I1	I1 dark	R1	R1dark	XCorrect	I1c	R1c	I1c/R1c	Abs	Percent T
nm	uA	uA	uA	uA		uA	uA	uA/uA	OD	T*100
	Abs Detector Raw	Dark Offset for Abs Detector	Ref Detector Raw	Dark Offset for Ref Detector	Linear interp	Dark subtracted Abs Detector	Corrected Ref Detector	Corrected Intensity 	-Log(T)	% Transmittance
600	2.73437766485522	0.00155244763803043	1.61486063685788	0.00333342199996308	0.717130899429321	2.73282521721719	1.15567596104589	2.36469850488538	0.0010482095947855	99.7589318583418
595	2.86259053421595		1.69153880183469		0.719892263412476	2.86103808657792	1.21532599199434	2.354132229068	9.99916348596445E-4	99.7700255994046
590	3.00185715109111		1.77479053490047		0.723316371440887	3.00030470345308	1.28132393106635	2.34156611822285	0.00108503952562408	99.7504722556334
585	3.12478029757259		1.84878672967316		0.726323843002319	3.12322784993456	1.34039673851054	2.33007717804888	0.00111022859508468	99.7446868984288
580	3.22557827324404		1.90953176361012		0.72833788394928	3.22402582560601	1.38835646651597	2.3221887918285	0.00105515128911792	99.7573373400912
575	3.33546845102759		1.97579295597231		0.73105776309967	3.33391600338956	1.44198185471044	2.31203741746045	0.00111226055519689	99.7442202179631
570	3.45506496422159		2.04793805700239		0.73466420173645	3.45351251658356	1.5020978320407	2.29912622395022	0.00124273968261942	99.7142576360791
565	3.57713819859709		2.12199410651116		0.738382756710052	3.57558575095906	1.56438251676259	2.28562113974436	0.00124609768425562	99.7134866399929
560	3.71486441997059		2.20437142673864		0.742404222488403	3.71331197233256	1.63405990857545	2.27244543045535	0.00125279782089285	99.7119483086086
555	3.86969002848279		2.29634099302154		0.747231364250183	3.86813758084476	1.71340717553045	2.25757055070534	0.00129886291610074	99.7013725426423
550	4.03017727149386		2.39168060445699		0.752462446689606	4.02862482385583	1.79714156445584	2.24168474177807	0.00134389509482481	99.6910350010676
545	4.2074229665864		2.4961630661977		0.757837355136871	4.20587051894837	1.8891594243656	2.22631846984579	0.00136765311205758	99.6855815664876
540	4.38445661211925		2.6001565960556		0.763391971588135	4.38290416448122	1.98239396270809	2.21091480650691	0.00142993819889833	99.6712860132333
535	4.57594142092442		2.71195694472996		0.769757688045502	4.57438897328639	2.08498378064231	2.19396861297271	0.00146698276993236	99.6627845868497
530	4.80919900300019		2.84769103110166		0.776710212230682	4.80764655536216	2.20924160222533	2.17615246359633	0.00154112663121303	99.6457713544652
525	5.05654269097669		2.99098550074392		0.783903956413269	5.05499024333866	2.34203228491372	2.15837769440693	0.00160859635966469	99.6302921089049
520	5.31971590647784		3.14222559901655		0.791250944137573	5.31816345883981	2.48365139861042	2.14126807885168	0.00164151254247234	99.6227411848901
515	5.62951596383369		3.32028266373476		0.799825251102448	5.62796351619566	2.65297976016461	2.12137446380159	0.00178241941212777	99.5904238237458
510	5.92781957592298		3.48882339792458		0.809457659721375	5.92626712828495	2.82135655889425	2.10050272079314	0.00181177701025246	99.5836919011821
505	6.32246127356482		3.71239599712889		0.818737685680389	6.32090882592679	3.0367493088048	2.08147205552985	0.00187213442814899	99.5698529114973
500	6.76837898174396		3.96397492312558		0.828416645526886	6.76682653410592	3.28106134649706	2.06238951957737	0.00199615244413419	99.5414236010472
495	7.65359470574587		4.46948448043184		0.838614106178284	7.65204225810784	3.74537727792404	2.04306313898213	0.00206568371126355	99.5254881296523
490	8.33934936120885		4.8534923243564		0.848338663578033	8.33779691357082	4.11457732136616	2.0264042360498	0.00213880231591221	99.5087332489014
485	9.1740601342407		5.31873873851299		0.855348587036133	9.17250768660267	4.54652442700377	2.01747682958068	0.00227179586346465	99.4782654582999
480	10.1966066926548		5.88794949795729		0.866066455841064	10.1950542450168	5.09646858888971	2.00041539885912	0.00239004262792541	99.4511838759006
475	11.7355811103335		6.75325580309345		0.879869520664215	11.7340286626955	5.93905096997338	1.97574136373308	0.00247595286221919	99.431512823508
470	14.4955771149301		8.29284786725404		0.895019471645355	14.4940246672921	7.41927683898784	1.9535629929762	0.00267174206256098	99.386697082929
465	15.2213883571471		8.6634067476093		0.910354375839233	15.2198359095091	7.88373564705708	1.93053605433745	0.00277800178247571	99.3623829109235
460	14.0714218871327		7.99309291727993		0.922647356987	14.0698694394947	7.37173048128184	1.9086250474323	0.00292315848288268	99.3291780092782
455	12.524781497805		7.14296140700501		0.929956316947937	12.523229050167	6.63954214531371	1.88615852962181	0.00307739328976136	99.2939086305915
450	11.1139344868409		6.4116736023099		0.932973027229309	11.1123820392029	5.97880853753898	1.85862818142308	0.00323052899783657	99.2589029761938
445	8.85283787966487		5.17873168829118		0.935176968574524	8.85128543202684	4.83991326183607	1.82881075613926	0.00336648850550886	99.2278340126856
440	7.97442452868265		4.70734479686421		0.939942717552185	7.97287208104461	4.42150123508629	1.80320476171687	0.00357809296386614	99.1794982900309
435	7.84877887000502		4.63325347025596		0.948230147361755	7.84722642236698	4.39022976963093	1.7874295501911	0.00390780733220256	99.1042302473892
430	8.37903190011279		4.91614676624472		0.960858643054962	8.37747945247476	4.72051916353333	1.77469451182234	0.00423984660901563	99.0284891956218
425	8.83099926647088		5.17491613166581		0.977734744548798	8.82944681883285	5.05643609954811	1.74617984782245	0.00457957392368537	98.9510543466195
420	8.30540954200853		4.92046377794622		0.992123365402222	8.3038570943705	4.87839991686282	1.70216817724745	0.00492434458093126	98.8725318611912
415	7.07055908307557		4.26782245242905		0.999114215373993	7.06900663543753	4.26071161160815	1.65911408229984	0.00525507166748645	98.7972663949673
410	6.12299566889309		3.76916960774188		1.00281167030334	6.12144322125506	3.77642447551262	1.62096270187533	0.00567018690440288	98.7028773155273
405	5.54019531477654		3.45977970053087		1.00957882404327	5.5386428671385	3.48955496924798	1.58720608098978	0.00608345159949599	98.6089985886743
400	5.45742574967758		3.43189169282981		1.02345275878906	5.45587330203955	3.50896742094986	1.55483726336868	0.00663227115949281	98.4844647321204
395	5.56248723363277		3.49829268255472		1.04821944236755	5.56093478599474	3.66348424719602	1.51793604415005	0.00710046829605121	98.378349410846
390	5.60591376666237		3.51421244323329		1.08368313312531	5.60436131902434	3.80468037775404	1.47301764211076	0.00775078305322269	98.2311474101069
385	5.7305841519064		3.57885688999647		1.12599265575409	5.72903170426837	4.02601316544046	1.42300371828059	0.00838907776916514	98.0868803949166
380	5.81659047968774		3.62527165665671		1.17243885993958	5.81503803204971	4.24650113461251	1.36937159504146	0.0091588650653599	97.9131753172266
375	5.75817337542897		3.58952041412378		1.21915531158447	5.75662092779094	4.3721189197829	1.31666613681148	0.00997986326510958	97.7282533120435
370	5.72213852694015		3.57358397497848		1.25962615013123	5.72058607930212	4.4971809590522	1.27203822380938	0.0108553037040947	97.5314534531371
365	5.7703389759663		3.61565482808185		1.27197480201721	5.76878652832827	4.59478180532355	1.25550826410179	0.0118176259150333	97.3155797098109
360	5.9855684331141		3.76414296225415		1.25185632705688	5.98401598547607	4.7079932178231	1.27103326377411	0.0128204032706971	97.091139178096
355	6.29395198656936		3.97072228760057		1.21720862388611	6.29239953893133	4.82913994151879	1.30300625269359	0.0138830092728417	96.8538727154776
350	6.58085861628231		4.16758619550535		1.1792927980423	6.57930616864428	4.91087330502257	1.33974259973584	0.0149875758442641	96.6078515855468
345	6.79489881562236		4.32368656231325		1.14527189731598	6.79334636798433	4.94797903808164	1.37295374853046	0.0161695585168409	96.345279613737
340	6.92584671060693		4.43247381529652		1.11531460285187	6.9242942629689	4.93988495872472	1.40171164325181	0.0173108524968155	96.0924236887193
335	6.90690572435449		4.45768491993211		1.09089875221252	6.90535327671646	4.85924649101017	1.42107491140688	0.0185628668691821	95.8158006844036
330	6.67956686295821		4.37179672813663		1.06744050979614	6.67801441532017	4.66307469852827	1.43210539119775	0.01988668954599	95.5241782743225
325	6.29042620045063		4.1965025589152		1.03879284858704	6.2888737528126	4.35583411234342	1.44378173975712	0.0213731397645139	95.1977886418792
320	5.99117518602138		4.06987123862041		1.00754153728485	5.98962273838335	4.09720576318475	1.46187989683184	0.0229183907437237	94.859669950073
315	5.88457761808795		4.05364586270868		0.978299379348755	5.88302517044992	3.96241814691388	1.48470579134408	0.0246564884506819	94.4807890385465
310	5.83794934678989		4.07420515461872		0.953616976737976	5.83639689915186	3.88205239434798	1.50343073876316	0.0263335872301749	94.1166396679961
305	5.6752071697058		4.0229893870011		0.934748709201813	5.67365472206777	3.75736822472018	1.51000763905441	0.0281506184044719	93.7236905836778
300	5.34383418763147		3.86380436932662		0.921929001808167	5.34228173999344	3.5590801269783	1.50102879097839	0.0301802967504767	93.2866941982573
295	4.85932873058308		3.5942344973569		0.920162856578827	4.85777628294505	3.30421379119242	1.47017614171751	0.0321702622168823	92.8602263166261
290	4.25279983774298		3.23528181202362		0.925946474075317	4.25124739010495	2.99261121613581	1.42058125264743	0.0342723817634176	92.4118401544671
285	3.60441590722832		2.83763654383715		0.924624860286713	3.60286345959029	2.6206671280389	1.37478866394085	0.0364507934508261	91.9494649730188
280	2.9870611220975		2.4516210436706		0.918464839458466	2.98550867445947	2.24866609738587	1.32767985337182	0.0383197766347519	91.5546113451232
275	2.42278789315105		2.09120883319668		0.889670491218567	2.42123544551302	1.85752114268255	1.30347665492323	0.0401631517029131	91.1668287971896
270	2.02978876386202		1.83958393307907		0.843315124511719	2.02823631622399	1.54853782838539	1.30977511756285	0.0419503507117719	90.7924319707018
265	1.7937119129987		1.68038943908628		0.793934762477875	1.79215946536067	1.33147307058751	1.34599753081741	0.0435462899617223	90.4594015020961
260	1.5704867747305		1.50674234871568		0.754058063030243	1.56893432709247	1.13365762322163	1.38395781491229	0.0451279748021445	90.1305508188613
255	1.26251990157143		1.24263168570852		0.730857133865356	1.2609674539334	0.905749977018346	1.39218049785041	0.0465740606911808	89.8309389870518
250	0.897266168289701		0.911999831866082		0.716208219528198	0.895713720651671	0.650794351555293	1.37633911313314	0.0484562520521355	89.4424625803848
245	0.530332900712926		0.563390846137473		0.708019316196442	0.528780453074895	0.39653147446858	1.33351445502164	0.0508397617786521	88.9529259937388
240	0.256899463924042		0.287874550546487		0.70177036523819	0.255347016286011	0.199682531705381	1.27876491801877	0.0549899905960146	88.10691792198
