Wavelength	I1	I1 dark	R1	R1dark	XCorrect	I1c	R1c	I1c/R1c	Abs	Percent T
nm	uA	uA	uA	uA		uA	uA	uA/uA	OD	T*100
	Abs Detector Raw	Dark Offset for Abs Detector	Ref Detector Raw	Dark Offset for Ref Detector	Linear interp	Dark subtracted Abs Detector	Corrected Ref Detector	Corrected Intensity 	-Log(T)	% Transmittance
600	2.69417225363892	0.00155535627029725	1.58863122412089	0.00335460825437977	0.717130899429321	2.69261689736862	1.13685084538062	2.36848739507874	4.99773199015732E-4	99.8849891564315
595	2.82078803560369		1.66418268988346		0.719892263412476	2.81923267933339	1.19561728682296	2.35797249705612	4.59862427859796E-4	99.8941688036314
590	2.96056555945923		1.74763759189374		0.723316371440887	2.95901020318893	1.26166843849211	2.3453152293525	5.30298700841442E-4	99.8779687304449
585	3.08202631703053		1.82064404423874		0.726323843002319	3.08047096076024	1.31994064699168	2.3337950594832	5.34965204996788E-4	99.8768955451489
580	3.18037102855163		1.87996236431421		0.72833788394928	3.17881567228133	1.36680452205143	2.32572809132229	5.5019932280673E-4	99.8733921395778
575	3.28669930815606		1.94383440629532		0.73105776309967	3.28514395188576	1.41860282049591	2.31576020040433	5.38504820906432E-4	99.8760815251175
570	3.40341895124436		2.01386151783191		0.73466420173645	3.40186359497406	1.4770474538104	2.30315118596775	5.91793920521344E-4	99.8638272134419
565	3.52348766170209		2.08677572896634		0.738382756710052	3.52193230543179	1.53836223049925	2.28940377994643	6.11115902495073E-4	99.8593843199063
560	3.66090212526434		2.16828596911916		0.742404222488403	3.65934676899404	1.60725418370358	2.27676916700372	5.39049325325039E-4	99.8759563037852
555	3.81442896425048		2.25929187329653		0.747231364250183	3.81287360798018	1.68570708022028	2.26188384252497	5.5864664173255E-4	99.8714495540145
550	3.97025025146965		2.35165959387472		0.752462446689606	3.96869489519935	1.76701131505328	2.24599291548945	6.32997731182134E-4	99.8543530542918
545	4.14707745535292		2.45568448969929		0.757837355136871	4.14552209908263	1.85846719127733	2.23061354999407	6.11823071698959E-4	99.8592217172789
540	4.31931563825844		2.55657696244067		0.763391971588135	4.31776028198815	1.94910944686517	2.21524773220538	6.77801367769898E-4	99.8440521926176
535	4.50784389434106		2.66622637240293		0.769757688045502	4.50628853807076	2.04976601273263	2.19844046104718	6.53223291275913E-4	99.8497028381931
530	4.73995606138234		2.80094710306578		0.776710212230682	4.73840070511204	2.17291866037993	2.18066179443806	6.78664388384706E-4	99.8438537848706
525	4.98422844810158		2.94209658492365		0.783903956413269	4.98267309183129	2.30369146238879	2.16290817289593	7.76112109000128E-4	99.8214531675733
520	5.24152805522776		3.08947638902225		0.791250944137573	5.23997269895747	2.44189677275611	2.14586167499752	7.98266827999888E-4	99.8163610931169
515	5.54258345929824		3.26159687417433		0.799825251102448	5.54102810302794	2.60602443849203	2.12623796660719	8.77045902304329E-4	99.7982564942752
510	5.83634647570255		3.42762352634295		0.809457659721375	5.83479111943225	2.77180070469262	2.10505434591817	9.36279463361024E-4	99.7846459068633
505	6.2250356831338		3.64706603156962		0.818737685680389	6.2234803268635	2.98324385801232	2.08614535823099	9.51726481922014E-4	99.7810968222442
500	6.66362816673283		3.89360737457863		0.828416645526886	6.66207281046253	3.22275014693003	2.06720115017566	0.00104565936855008	99.7595176557737
495	7.53830479897998		4.39157935745211		0.838614106178284	7.53674944270969	3.68002717575788	2.04801461585879	0.00110431891817445	99.7460441868775
490	8.22924324836757		4.77757241255039		0.848338663578033	8.22768789209727	4.05015355172693	2.03145085415073	0.00118025964606331	99.7286041196186
485	9.03960203907485		5.22740124498148		0.855348587036133	9.03804668280455	4.46838090933538	2.02266701657466	0.00124021931859115	99.7148363147585
480	10.0607657996429		5.79414694950398		0.866066455841064	10.0592104433726	5.01521099949762	2.00574022596063	0.00132486617299875	99.6954031304152
475	11.5519272829423		6.6303593533892		0.879869520664215	11.550371926672	5.83089948854126	1.98089024675705	0.00146784990417328	99.662585595312
470	14.313723541438		8.16655457186025		0.895019471645355	14.3121681851677	7.3062229183619	1.95890111006585	0.00153542245348263	99.6470801459566
465	15.0678575179168		8.55225306153001		0.910354375839233	15.0663021616465	7.78252711554472	1.93591386678927	0.00166154073824693	99.6181470262248
460	13.9103930742996		7.87875184840087		0.922647356987	13.9088377180293	7.26621444884387	1.91417935927316	0.00179685843781469	99.587112787471
455	12.3704193646327		7.03405695919798		0.929956316947937	12.3688640083624	6.53824606384071	1.89177095624582	0.00200430105076169	99.5395559367585
450	10.9839583887275		6.3170887784691		0.932973027229309	10.9824030324572	5.89054368190635	1.86441245927624	0.00215061289176995	99.506027160035
445	8.74722421309469		5.10107070471478		0.935176968574524	8.74566885682439	4.7672666857414	1.83452477768491	0.00228856462295977	99.4744245278392
440	7.86987638945196		4.63116443706119		0.939942717552185	7.86832103318167	4.34987614680338	1.80886093480245	0.00243429765605969	99.4410502203112
435	7.73420410972065		4.55108464245929		0.948230147361755	7.73264875345035	4.31229472049561	1.79316332826195	0.00260450657590327	99.402084868207
430	8.2497945178167		4.82438941065433		0.960858643054962	8.2482391615464	4.63233295835477	1.78057994442521	0.00287428740479221	99.3403561323163
425	8.71093809507562		5.08635181073063		0.977734744548798	8.70938273880533	4.96982297130537	1.75245331455292	0.00320259009452116	99.2652886757888
420	8.20558100236837		4.84268838274918		0.992123365402222	8.20402564609807	4.80121611065642	1.70873908964211	0.00351564919479224	99.1937595509932
415	6.98457776994257		4.19883195221644		0.999114215373993	6.98302241367227	4.19176105463201	1.66589228790984	0.00380534945579697	99.1276134752402
410	6.04847281274556		3.70733078840889		1.00281167030334	6.04691745647526	3.71439053998455	1.62797029321004	0.004073103129848	99.0665175975576
405	5.47114811778681		3.40150865706254		1.00957882404327	5.46959276151651	3.43070436851363	1.5943060590459	0.00436614054727274	98.9996956462958
400	5.38765532515168		3.3723296227553		1.02345275878906	5.38609996888138	3.44798677288239	1.56209995097481	0.00473128969502917	98.9164929735061
395	5.49435686769407		3.4386410531544		1.04821944236755	5.49280151142377	3.60093404164591	1.52538242797503	0.00506955214631063	98.8394790817016
390	5.53632298080763		3.45237685998428		1.08368313312531	5.53476762453733	3.73764723997355	1.48081594360855	0.00552344860273904	98.7362324243036
385	5.66722585626113		3.51940142758756		1.12599265575409	5.66567049999084	3.95904289585668	1.43107075346928	0.00607159566567246	98.6116905817075
380	5.75337512349502		3.5641725748696		1.17243885993958	5.75181976722472	4.1748413572307	1.37773373286694	0.00663912456359192	98.4829106057456
375	5.69719287274295		3.52792576959451		1.21915531158447	5.69563751647266	4.29699965240527	1.32549173311766	0.00725946229029336	98.342339964367
370	5.66148007503409		3.51005516541787		1.25962615013123	5.65992471876379	4.41713172248287	1.28135746777829	0.00788093684930658	98.2017129096467
365	5.71075979651687		3.54997963547318		1.27197480201721	5.70920444024657	4.51121766682593	1.26555729780681	0.00866247267508293	98.0251526602919
360	5.92475430738054		3.69413281727022		1.25185632705688	5.92319895111024	4.62032405272016	1.28198777478022	0.00943294699942193	97.8514021029042
355	6.23611876902701		3.89814209379879		1.21720862388611	6.23456341275671	4.74076891560835	1.31509540408735	0.0101657257501236	97.6864380678863
350	6.51744073079353		4.08701183181364		1.1792927980423	6.51588537452323	4.81582755341684	1.35301467966813	0.0109831682385209	97.5027425697036
345	6.72972424068747		4.2380660292081		1.14527189731598	6.72816888441718	4.84989598366132	1.38728106893086	0.011957633366683	97.2842122599991
340	6.86037255559512		4.34342843967577		1.11531460285187	6.85881719932482	4.84054772163953	1.41695064148685	0.012971425106935	97.0573825139256
335	6.84883900583652		4.37131750694714		1.09089875221252	6.84728364956622	4.76500527589453	1.43699392825557	0.0140991341233707	96.8056857777969
330	6.62196349893056		4.28476656368946		1.06744050979614	6.62040814266027	4.57015256035693	1.44861863039058	0.0153542017802648	96.5263308672774
325	6.23267388622828		4.11007934026639		1.03879284858704	6.23111852995798	4.26603628272958	1.46063420866431	0.0167802220917177	96.2099032483286
320	5.93483943429337		3.98518790033574		1.00754153728485	5.93328407802307	4.01186243631565	1.47893507621662	0.0182818215957878	95.8778260935563
315	5.82326421501263		3.96562290407603		0.978299379348755	5.82170885874234	3.87628461461557	1.50187858672491	0.0199462348329881	95.5110820344921
310	5.77076734510521		3.98189657100319		0.953616976737976	5.76921198883492	3.79400515834169	1.52061258434255	0.0217809386521723	95.1084406692947
305	5.6030543526113		3.9282948243912		0.934748709201813	5.601498996341	3.66883280072818	1.52677957829783	0.0238137629939387	94.6643020002154
300	5.2761801644643		3.77510624834315		0.921929001808167	5.274624808194	3.47728722461536	1.51687924162706	0.0260877809919526	94.1699238018815
295	4.78782406045864		3.50718394838833		0.920162856578827	4.78626870418835	3.22409361458236	1.48453155409023	0.0284804363475969	93.6525406580126
290	4.18252741492807		3.15505249471725		0.925946474075317	4.18097205865777	2.91830354532093	1.43267209655464	0.0312578269440166	93.0555270121091
285	3.53492062552359		2.7633747167413		0.924624860286713	3.53336526925329	2.55198320719824	1.38455663003069	0.0340319910807734	92.4630061158319
280	2.92167619193884		2.38496926048966		0.918464839458466	2.92012083566854	2.18742931921721	1.33495551605459	0.036777811981053	91.8802541906609
275	2.36399132600318		2.03255685833338		0.889670491218567	2.36243596973288	1.80532136260961	1.30859580940091	0.0394037886070373	91.3263732691621
270	1.97265494939305		1.78435701923725		0.843315124511719	1.97109959312275	1.50194626997369	1.31236358618693	0.0419841267734484	90.7853711130021
265	1.73787522743079		1.62740133504996		0.793934762477875	1.7363198711605	1.28938715229142	1.34662414471466	0.0442265816527747	90.3178141486795
260	1.51896111697741		1.45914745632774		0.754058063030243	1.51740576070711	1.09775233519148	1.3822842476053	0.0465011123673613	89.8460291322972
255	1.21973695832197		1.20369520881332		0.730857133865356	1.21818160205168	0.877277490986726	1.38859324964729	0.0485715301323857	89.4187243394014
250	0.865362676901068		0.882609722425414		0.716208219528198	0.863807320630771	0.629729739831499	1.37171117384722	0.0509137660276248	88.9377696104043
245	0.510279336950282		0.544703518941636		0.708019316196442	0.508723980679985	0.38328548556848	1.32727170695091	0.0539309354939596	88.3220345046342
240	0.24648355660177		0.278007903323339		0.70177036523819	0.244928200331473	0.192743543194416	1.27074659037693	0.0585946814194627	87.3786475864821
